* 亜風実 (Afumi/Affriza) Target V3 In-Ear Dynamic Transducer 10mm+ Class
* Version: V3
*
* Freq(Hz) SPL(dB)
20.000000 60.071
20.250000 60.070
20.500000 60.063
20.750000 60.053
21.000000 60.040
21.250000 60.025
21.500000 60.009
21.750000 59.991
22.000000 59.973
22.250000 59.953
22.500000 59.934
22.750000 59.914
23.000000 59.894
23.250000 59.874
23.500000 59.853
23.750000 59.832
24.000000 59.812
24.250000 59.791
24.500000 59.770
24.750000 59.749
25.000000 59.727
25.250000 59.706
25.500000 59.685
25.750000 59.663
26.000000 59.642
26.250000 59.620
26.500000 59.598
26.750000 59.577
27.000000 59.555
27.250000 59.533
27.500000 59.511
27.750000 59.489
28.000000 59.467
28.250000 59.445
28.500000 59.422
28.750000 59.400
29.000000 59.378
29.250000 59.356
29.500000 59.334
29.750000 59.311
30.000000 59.289
30.250000 59.267
30.500000 59.244
30.750000 59.222
31.000000 59.199
31.250000 59.177
31.500000 59.154
31.750000 59.132
32.000000 59.110
32.250000 59.087
32.500000 59.065
32.750000 59.042
33.000000 59.020
33.250000 58.997
33.500000 58.974
33.750000 58.952
34.000000 58.929
34.250000 58.907
34.500000 58.884
34.750000 58.862
35.000000 58.839
35.250000 58.817
35.500000 58.794
35.750000 58.772
36.000000 58.749
36.250000 58.727
36.500000 58.704
36.750000 58.682
37.000000 58.659
37.250000 58.637
37.500000 58.614
37.750000 58.592
38.000000 58.569
38.250000 58.547
38.500000 58.525
38.750000 58.502
39.000000 58.480
39.250000 58.457
39.500000 58.435
39.750000 58.413
40.000000 58.390
40.250000 58.368
40.500000 58.346
40.750000 58.323
41.000000 58.301
41.250000 58.279
41.500000 58.257
41.750000 58.234
42.000000 58.212
42.250000 58.190
42.500000 58.168
42.750000 58.146
43.000000 58.123
43.250000 58.101
43.500000 58.079
43.750000 58.057
44.000000 58.035
44.250000 58.013
44.500000 57.991
44.750000 57.969
45.000000 57.947
45.250000 57.925
45.500000 57.903
45.750000 57.881
46.000000 57.859
46.250000 57.837
46.500000 57.815
46.750000 57.793
47.000000 57.771
47.250000 57.749
47.500000 57.728
47.750000 57.706
48.000000 57.684
48.250000 57.663
48.500000 57.641
48.750000 57.620
49.000000 57.598
49.250000 57.577
49.500000 57.555
49.750000 57.534
50.000000 57.513
50.250000 57.491
50.500000 57.470
50.750000 57.449
51.000000 57.428
51.250000 57.407
51.500000 57.386
51.750000 57.365
52.000000 57.344
52.250000 57.323
52.500000 57.302
52.750000 57.281
53.000000 57.261
53.250000 57.240
53.500000 57.219
53.750000 57.199
54.000000 57.178
54.250000 57.157
54.500000 57.137
54.750000 57.116
55.000000 57.096
55.250000 57.075
55.500000 57.055
55.750000 57.035
56.000000 57.014
56.250000 56.994
56.500000 56.974
56.750000 56.954
57.000000 56.934
57.250000 56.913
57.500000 56.893
57.750000 56.873
58.000000 56.854
58.250000 56.834
58.500000 56.814
58.750000 56.794
59.000000 56.775
59.250000 56.755
59.500000 56.736
59.750000 56.717
60.000000 56.697
60.250000 56.678
60.500000 56.659
60.750000 56.640
61.000000 56.622
61.250000 56.603
61.500000 56.584
61.750000 56.566
62.000000 56.548
62.250000 56.529
62.500000 56.511
62.750000 56.493
63.000000 56.475
63.250000 56.457
63.500000 56.440
63.750000 56.422
64.000000 56.404
64.250000 56.387
64.500000 56.370
64.750000 56.352
65.000000 56.335
65.250000 56.318
65.500000 56.301
65.750000 56.283
66.000000 56.266
66.250000 56.249
66.500000 56.233
66.750000 56.216
67.000000 56.199
67.250000 56.182
67.500000 56.166
67.750000 56.149
68.000000 56.133
68.250000 56.116
68.500000 56.100
68.750000 56.084
69.000000 56.067
69.250000 56.051
69.500000 56.035
69.750000 56.019
70.000000 56.003
70.250000 55.988
70.500000 55.972
70.750000 55.956
71.000000 55.941
71.250000 55.926
71.500000 55.910
71.750000 55.895
72.000000 55.880
72.250000 55.865
72.500000 55.850
72.750000 55.836
73.000000 55.821
73.250000 55.806
73.500000 55.792
73.750000 55.777
74.000000 55.763
74.250000 55.749
74.500000 55.735
74.750000 55.721
75.000000 55.707
75.250000 55.693
75.500000 55.679
75.750000 55.665
76.000000 55.652
76.250000 55.638
76.500000 55.624
76.750000 55.611
77.000000 55.597
77.250000 55.584
77.500000 55.571
77.750000 55.557
78.000000 55.544
78.250000 55.531
78.500000 55.517
78.750000 55.504
79.000000 55.491
79.250000 55.478
79.500000 55.465
79.750000 55.452
80.000000 55.439
80.250000 55.426
80.500000 55.413
80.750000 55.400
81.000000 55.387
81.250000 55.374
81.500000 55.361
81.750000 55.348
82.000000 55.335
82.250000 55.322
82.500000 55.309
82.750000 55.296
83.000000 55.284
83.250000 55.271
83.500000 55.258
83.750000 55.245
84.000000 55.233
84.250000 55.220
84.500000 55.207
84.750000 55.194
85.000000 55.182
85.250000 55.169
85.500000 55.157
85.750000 55.144
86.000000 55.131
86.250000 55.119
86.500000 55.106
86.750000 55.094
87.000000 55.081
87.250000 55.069
87.500000 55.056
87.750000 55.044
88.000000 55.031
88.250000 55.019
88.500000 55.006
88.750000 54.994
89.000000 54.981
89.250000 54.969
89.500000 54.957
89.750000 54.944
90.000000 54.932
90.250000 54.920
90.500000 54.907
90.750000 54.895
91.000000 54.883
91.250000 54.871
91.500000 54.858
91.750000 54.846
92.000000 54.834
92.250000 54.822
92.500000 54.810
92.750000 54.797
93.000000 54.785
93.250000 54.773
93.500000 54.761
93.750000 54.749
94.000000 54.737
94.250000 54.725
94.500000 54.713
94.750000 54.701
95.000000 54.689
95.250000 54.677
95.500000 54.665
95.750000 54.653
96.000000 54.641
96.250000 54.629
96.500000 54.617
96.750000 54.605
97.000000 54.593
97.250000 54.581
97.500000 54.569
97.750000 54.557
98.000000 54.546
98.250000 54.534
98.500000 54.522
98.750000 54.510
99.000000 54.498
99.250000 54.487
99.500000 54.475
99.750000 54.463
100.000000 54.452
100.250000 54.440
100.500000 54.428
100.750000 54.417
101.000000 54.405
101.250000 54.393
101.500000 54.382
101.750000 54.370
102.000000 54.358
102.250000 54.347
102.500000 54.335
102.750000 54.324
103.000000 54.312
103.250000 54.301
103.500000 54.289
103.750000 54.278
104.000000 54.266
104.250000 54.255
104.500000 54.243
104.750000 54.232
105.000000 54.221
105.250000 54.209
105.500000 54.198
105.750000 54.186
106.000000 54.175
106.250000 54.164
106.500000 54.152
106.750000 54.141
107.000000 54.130
107.250000 54.119
107.500000 54.107
107.750000 54.096
108.000000 54.085
108.250000 54.074
108.500000 54.063
108.750000 54.051
109.000000 54.040
109.250000 54.029
109.500000 54.018
109.750000 54.007
110.000000 53.996
110.250000 53.985
110.500000 53.974
110.750000 53.962
111.000000 53.951
111.250000 53.940
111.500000 53.929
111.750000 53.918
112.000000 53.907
112.250000 53.896
112.500000 53.886
112.750000 53.875
113.000000 53.864
113.250000 53.853
113.500000 53.842
113.750000 53.831
114.000000 53.820
114.250000 53.809
114.500000 53.798
114.750000 53.788
115.000000 53.777
115.250000 53.766
115.500000 53.755
115.750000 53.745
116.000000 53.734
116.250000 53.723
116.500000 53.712
116.750000 53.702
117.000000 53.691
117.250000 53.680
117.500000 53.670
117.750000 53.659
118.000000 53.649
118.250000 53.638
118.500000 53.628
118.750000 53.617
119.000000 53.606
119.250000 53.596
119.500000 53.586
119.750000 53.575
120.000000 53.565
120.250000 53.554
120.500000 53.544
120.750000 53.533
121.000000 53.523
121.250000 53.513
121.500000 53.502
121.750000 53.492
122.000000 53.482
122.250000 53.472
122.500000 53.461
122.750000 53.451
123.000000 53.441
123.250000 53.431
123.500000 53.421
123.750000 53.411
124.000000 53.401
124.250000 53.391
124.500000 53.381
124.750000 53.371
125.000000 53.361
125.250000 53.351
125.500000 53.341
125.750000 53.331
126.000000 53.321
126.250000 53.311
126.500000 53.302
126.750000 53.292
127.000000 53.282
127.250000 53.272
127.500000 53.263
127.750000 53.253
128.000000 53.244
128.250000 53.234
128.500000 53.225
128.750000 53.215
129.000000 53.206
129.250000 53.197
129.500000 53.187
129.750000 53.178
130.000000 53.169
130.250000 53.160
130.500000 53.150
130.750000 53.141
131.000000 53.132
131.250000 53.123
131.500000 53.114
131.750000 53.105
132.000000 53.096
132.250000 53.088
132.500000 53.079
132.750000 53.070
133.000000 53.061
133.250000 53.052
133.500000 53.044
133.750000 53.035
134.000000 53.027
134.250000 53.018
134.500000 53.010
134.750000 53.001
135.000000 52.993
135.250000 52.984
135.500000 52.976
135.750000 52.968
136.000000 52.959
136.250000 52.951
136.500000 52.943
136.750000 52.935
137.000000 52.927
137.250000 52.919
137.500000 52.911
137.750000 52.903
138.000000 52.895
138.250000 52.887
138.500000 52.879
138.750000 52.871
139.000000 52.863
139.250000 52.855
139.500000 52.847
139.750000 52.840
140.000000 52.832
140.250000 52.824
140.500000 52.816
140.750000 52.809
141.000000 52.801
141.250000 52.793
141.500000 52.786
141.750000 52.778
142.000000 52.771
142.250000 52.763
142.500000 52.756
142.750000 52.748
143.000000 52.741
143.250000 52.733
143.500000 52.726
143.750000 52.718
144.000000 52.711
144.250000 52.703
144.500000 52.696
144.750000 52.689
145.000000 52.681
145.250000 52.674
145.500000 52.667
145.750000 52.660
146.000000 52.652
146.250000 52.645
146.500000 52.638
146.750000 52.631
147.000000 52.624
147.250000 52.616
147.500000 52.609
147.750000 52.602
148.000000 52.595
148.250000 52.588
148.500000 52.581
148.750000 52.574
149.000000 52.567
149.250000 52.560
149.500000 52.553
149.750000 52.546
150.000000 52.539
150.250000 52.532
150.500000 52.525
150.750000 52.518
151.000000 52.511
151.250000 52.504
151.500000 52.497
151.750000 52.490
152.000000 52.483
152.250000 52.477
152.500000 52.470
152.750000 52.463
153.000000 52.456
153.250000 52.449
153.500000 52.443
153.750000 52.436
154.000000 52.429
154.250000 52.423
154.500000 52.416
154.750000 52.409
155.000000 52.403
155.250000 52.396
155.500000 52.389
155.750000 52.383
156.000000 52.376
156.250000 52.370
156.500000 52.363
156.750000 52.357
157.000000 52.350
157.250000 52.344
157.500000 52.337
157.750000 52.331
158.000000 52.325
158.250000 52.318
158.500000 52.312
158.750000 52.305
159.000000 52.299
159.250000 52.293
159.500000 52.287
159.750000 52.280
160.000000 52.274
160.250000 52.268
160.500000 52.262
160.750000 52.256
161.000000 52.250
161.250000 52.243
161.500000 52.237
161.750000 52.231
162.000000 52.225
162.250000 52.219
162.500000 52.213
162.750000 52.208
163.000000 52.202
163.250000 52.196
163.500000 52.190
163.750000 52.184
164.000000 52.178
164.250000 52.173
164.500000 52.167
164.750000 52.161
165.000000 52.156
165.250000 52.150
165.500000 52.144
165.750000 52.139
166.000000 52.133
166.250000 52.128
166.500000 52.122
166.750000 52.117
167.000000 52.111
167.250000 52.106
167.500000 52.101
167.750000 52.095
168.000000 52.090
168.250000 52.085
168.500000 52.080
168.750000 52.075
169.000000 52.069
169.250000 52.064
169.500000 52.059
169.750000 52.054
170.000000 52.049
170.250000 52.044
170.500000 52.039
170.750000 52.034
171.000000 52.030
171.250000 52.025
171.500000 52.020
171.750000 52.015
172.000000 52.010
172.250000 52.006
172.500000 52.001
172.750000 51.996
173.000000 51.992
173.250000 51.987
173.500000 51.983
173.750000 51.978
174.000000 51.973
174.250000 51.969
174.500000 51.965
174.750000 51.960
175.000000 51.956
175.250000 51.951
175.500000 51.947
175.750000 51.943
176.000000 51.938
176.250000 51.934
176.500000 51.930
176.750000 51.926
177.000000 51.922
177.250000 51.917
177.500000 51.913
177.750000 51.909
178.000000 51.905
178.250000 51.901
178.500000 51.897
178.750000 51.893
179.000000 51.889
179.250000 51.885
179.500000 51.881
179.750000 51.877
180.000000 51.873
180.250000 51.869
180.500000 51.866
180.750000 51.862
181.000000 51.858
181.250000 51.854
181.500000 51.850
181.750000 51.847
182.000000 51.843
182.250000 51.839
182.500000 51.835
182.750000 51.832
183.000000 51.828
183.250000 51.824
183.500000 51.821
183.750000 51.817
184.000000 51.813
184.250000 51.810
184.500000 51.806
184.750000 51.803
185.000000 51.799
185.250000 51.795
185.500000 51.792
185.750000 51.788
186.000000 51.785
186.250000 51.781
186.500000 51.778
186.750000 51.774
187.000000 51.771
187.250000 51.767
187.500000 51.764
187.750000 51.761
188.000000 51.757
188.250000 51.754
188.500000 51.750
188.750000 51.747
189.000000 51.744
189.250000 51.740
189.500000 51.737
189.750000 51.734
190.000000 51.730
190.250000 51.727
190.500000 51.724
190.750000 51.720
191.000000 51.717
191.250000 51.714
191.500000 51.710
191.750000 51.707
192.000000 51.704
192.250000 51.701
192.500000 51.697
192.750000 51.694
193.000000 51.691
193.250000 51.688
193.500000 51.685
193.750000 51.681
194.000000 51.678
194.250000 51.675
194.500000 51.672
194.750000 51.669
195.000000 51.666
195.250000 51.662
195.500000 51.659
195.750000 51.656
196.000000 51.653
196.250000 51.650
196.500000 51.647
196.750000 51.644
197.000000 51.641
197.250000 51.638
197.500000 51.634
197.750000 51.631
198.000000 51.628
198.250000 51.625
198.500000 51.622
198.750000 51.619
199.000000 51.616
199.250000 51.613
199.500000 51.610
199.750000 51.607
200.000000 51.604
200.250000 51.601
200.500000 51.598
200.750000 51.595
201.000000 51.592
201.250000 51.589
201.500000 51.586
201.750000 51.583
202.000000 51.581
202.250000 51.578
202.500000 51.575
202.750000 51.572
203.000000 51.569
203.250000 51.566
203.500000 51.563
203.750000 51.560
204.000000 51.557
204.250000 51.555
204.500000 51.552
204.750000 51.549
205.000000 51.546
205.250000 51.543
205.500000 51.540
205.750000 51.537
206.000000 51.535
206.250000 51.532
206.500000 51.529
206.750000 51.526
207.000000 51.523
207.250000 51.521
207.500000 51.518
207.750000 51.515
208.000000 51.512
208.250000 51.510
208.500000 51.507
208.750000 51.504
209.000000 51.501
209.250000 51.499
209.500000 51.496
209.750000 51.493
210.000000 51.490
210.250000 51.488
210.500000 51.485
210.750000 51.482
211.000000 51.480
211.250000 51.477
211.500000 51.474
211.750000 51.472
212.000000 51.469
212.250000 51.466
212.500000 51.464
212.750000 51.461
213.000000 51.458
213.250000 51.456
213.500000 51.453
213.750000 51.451
214.000000 51.448
214.250000 51.445
214.500000 51.443
214.750000 51.440
215.000000 51.438
215.250000 51.435
215.500000 51.433
215.750000 51.430
216.000000 51.427
216.250000 51.425
216.500000 51.422
216.750000 51.420
217.000000 51.417
217.250000 51.415
217.500000 51.412
217.750000 51.410
218.000000 51.407
218.250000 51.405
218.500000 51.402
218.750000 51.400
219.000000 51.397
219.250000 51.395
219.500000 51.392
219.750000 51.390
220.000000 51.388
220.250000 51.385
220.500000 51.383
220.750000 51.380
221.000000 51.378
221.250000 51.375
221.500000 51.373
221.750000 51.371
222.000000 51.368
222.250000 51.366
222.500000 51.364
222.750000 51.361
223.000000 51.359
223.250000 51.356
223.500000 51.354
223.750000 51.352
224.000000 51.349
224.250000 51.347
224.500000 51.345
224.750000 51.342
225.000000 51.340
225.250000 51.338
225.500000 51.336
225.750000 51.333
226.000000 51.331
226.250000 51.329
226.500000 51.327
226.750000 51.324
227.000000 51.322
227.250000 51.320
227.500000 51.318
227.750000 51.315
228.000000 51.313
228.250000 51.311
228.500000 51.309
228.750000 51.307
229.000000 51.304
229.250000 51.302
229.500000 51.300
229.750000 51.298
230.000000 51.296
230.250000 51.294
230.500000 51.292
230.750000 51.289
231.000000 51.287
231.250000 51.285
231.500000 51.283
231.750000 51.281
232.000000 51.279
232.250000 51.277
232.500000 51.275
232.750000 51.273
233.000000 51.271
233.250000 51.269
233.500000 51.267
233.750000 51.265
234.000000 51.263
234.250000 51.261
234.500000 51.259
234.750000 51.257
235.000000 51.255
235.250000 51.253
235.500000 51.251
235.750000 51.249
236.000000 51.247
236.250000 51.245
236.500000 51.244
236.750000 51.242
237.000000 51.240
237.250000 51.238
237.500000 51.236
237.750000 51.234
238.000000 51.233
238.250000 51.231
238.500000 51.229
238.750000 51.227
239.000000 51.225
239.250000 51.224
239.500000 51.222
239.750000 51.220
240.000000 51.219
240.250000 51.217
240.500000 51.215
240.750000 51.214
241.000000 51.212
241.250000 51.210
241.500000 51.209
241.750000 51.207
242.000000 51.205
242.250000 51.204
242.500000 51.202
242.750000 51.201
243.000000 51.199
243.250000 51.198
243.500000 51.196
243.750000 51.195
244.000000 51.193
244.250000 51.192
244.500000 51.190
244.750000 51.189
245.000000 51.187
245.250000 51.186
245.500000 51.185
245.750000 51.183
246.000000 51.182
246.250000 51.180
246.500000 51.179
246.750000 51.178
247.000000 51.176
247.250000 51.175
247.500000 51.174
247.750000 51.173
248.000000 51.171
248.250000 51.170
248.500000 51.169
248.750000 51.168
249.000000 51.167
249.250000 51.165
249.500000 51.164
249.750000 51.163
250.000000 51.162
250.250000 51.161
250.500000 51.160
250.750000 51.159
251.000000 51.158
251.250000 51.156
251.500000 51.155
251.750000 51.154
252.000000 51.153
252.250000 51.152
252.500000 51.151
252.750000 51.150
253.000000 51.149
253.250000 51.148
253.500000 51.148
253.750000 51.147
254.000000 51.146
254.250000 51.145
254.500000 51.144
254.750000 51.143
255.000000 51.142
255.250000 51.141
255.500000 51.141
255.750000 51.140
256.000000 51.139
256.250000 51.138
256.500000 51.137
256.750000 51.137
257.000000 51.136
257.250000 51.135
257.500000 51.134
257.750000 51.134
258.000000 51.133
258.250000 51.132
258.500000 51.131
258.750000 51.131
259.000000 51.130
259.250000 51.129
259.500000 51.129
259.750000 51.128
260.000000 51.127
260.250000 51.127
260.500000 51.126
260.750000 51.126
261.000000 51.125
261.250000 51.124
261.500000 51.124
261.750000 51.123
262.000000 51.123
262.250000 51.122
262.500000 51.122
262.750000 51.121
263.000000 51.121
263.250000 51.120
263.500000 51.120
263.750000 51.119
264.000000 51.119
264.250000 51.118
264.500000 51.118
264.750000 51.117
265.000000 51.117
265.250000 51.116
265.500000 51.116
265.750000 51.115
266.000000 51.115
266.250000 51.114
266.500000 51.114
266.750000 51.114
267.000000 51.113
267.250000 51.113
267.500000 51.112
267.750000 51.112
268.000000 51.111
268.250000 51.111
268.500000 51.111
268.750000 51.110
269.000000 51.110
269.250000 51.110
269.500000 51.109
269.750000 51.109
270.000000 51.108
270.250000 51.108
270.500000 51.108
270.750000 51.107
271.000000 51.107
271.250000 51.107
271.500000 51.106
271.750000 51.106
272.000000 51.106
272.250000 51.105
272.500000 51.105
272.750000 51.105
273.000000 51.104
273.250000 51.104
273.500000 51.104
273.750000 51.103
274.000000 51.103
274.250000 51.103
274.500000 51.103
274.750000 51.102
275.000000 51.102
275.250000 51.102
275.500000 51.101
275.750000 51.101
276.000000 51.101
276.250000 51.101
276.500000 51.100
276.750000 51.100
277.000000 51.100
277.250000 51.099
277.500000 51.099
277.750000 51.099
278.000000 51.099
278.250000 51.098
278.500000 51.098
278.750000 51.098
279.000000 51.098
279.250000 51.097
279.500000 51.097
279.750000 51.097
280.000000 51.097
280.250000 51.096
280.500000 51.096
280.750000 51.096
281.000000 51.096
281.250000 51.095
281.500000 51.095
281.750000 51.095
282.000000 51.095
282.250000 51.094
282.500000 51.094
282.750000 51.094
283.000000 51.094
283.250000 51.094
283.500000 51.093
283.750000 51.093
284.000000 51.093
284.250000 51.093
284.500000 51.092
284.750000 51.092
285.000000 51.092
285.250000 51.092
285.500000 51.092
285.750000 51.091
286.000000 51.091
286.250000 51.091
286.500000 51.091
286.750000 51.090
287.000000 51.090
287.250000 51.090
287.500000 51.090
287.750000 51.090
288.000000 51.089
288.250000 51.089
288.500000 51.089
288.750000 51.089
289.000000 51.089
289.250000 51.088
289.500000 51.088
289.750000 51.088
290.000000 51.088
290.250000 51.088
290.500000 51.087
290.750000 51.087
291.000000 51.087
291.250000 51.087
291.500000 51.087
291.750000 51.087
292.000000 51.086
292.250000 51.086
292.500000 51.086
292.750000 51.086
293.000000 51.086
293.250000 51.085
293.500000 51.085
293.750000 51.085
294.000000 51.085
294.250000 51.085
294.500000 51.084
294.750000 51.084
295.000000 51.084
295.250000 51.084
295.500000 51.084
295.750000 51.084
296.000000 51.083
296.250000 51.083
296.500000 51.083
296.750000 51.083
297.000000 51.083
297.250000 51.083
297.500000 51.082
297.750000 51.082
298.000000 51.082
298.250000 51.082
298.500000 51.082
298.750000 51.082
299.000000 51.081
299.250000 51.081
299.500000 51.081
299.750000 51.081
300.000000 51.081
300.250000 51.081
300.500000 51.080
